"# Channel 1"
"# Trace 1"
Frequency, Formatted Data, Formatted Data
+1.00000000000E+003, -2.04145589797E+001, +0.00000000000E+000
+2.25025025025E+003, -1.38118378504E+001, +0.00000000000E+000
+3.50050050050E+003, -1.05619930692E+001, +0.00000000000E+000
+4.75075075075E+003, -8.60754988942E+000, +0.00000000000E+000
+6.00100100100E+003, -7.33116016809E+000, +0.00000000000E+000
+7.25125125125E+003, -6.46025721974E+000, +0.00000000000E+000
+8.50150150150E+003, -5.84170745521E+000, +0.00000000000E+000
+9.75175175175E+003, -5.39022053718E+000, +0.00000000000E+000
+1.10020020020E+004, -5.05347109757E+000, +0.00000000000E+000
+1.22522522523E+004, -4.79471547849E+000, +0.00000000000E+000
+1.35025025025E+004, -4.59484232435E+000, +0.00000000000E+000
+1.47527527528E+004, -4.43575137837E+000, +0.00000000000E+000
+1.60030030030E+004, -4.30722921976E+000, +0.00000000000E+000
+1.72532532533E+004, -4.20249991046E+000, +0.00000000000E+000
+1.85035035035E+004, -4.11675337405E+000, +0.00000000000E+000
+1.97537537538E+004, -4.04469278059E+000, +0.00000000000E+000
+2.10040040040E+004, -3.98453117198E+000, +0.00000000000E+000
+2.22542542543E+004, -3.93392555544E+000, +0.00000000000E+000
+2.35045045045E+004, -3.88941068388E+000, +0.00000000000E+000
+2.47547547548E+004, -3.85143026830E+000, +0.00000000000E+000
+2.60050050050E+004, -3.81808713303E+000, +0.00000000000E+000
+2.72552552553E+004, -3.78957447493E+000, +0.00000000000E+000
+2.85055055055E+004, -3.76246188329E+000, +0.00000000000E+000
+2.97557557558E+004, -3.75275546638E+000, +0.00000000000E+000
+3.10060060060E+004, -3.79200598993E+000, +0.00000000000E+000
+3.22562562563E+004, -3.84756994578E+000, +0.00000000000E+000
+3.35065065065E+004, -3.71294399303E+000, +0.00000000000E+000
+3.47567567568E+004, -3.70761427501E+000, +0.00000000000E+000
+3.60070070070E+004, -3.67663806387E+000, +0.00000000000E+000
+3.72572572573E+004, -3.65595506614E+000, +0.00000000000E+000
+3.85075075075E+004, -3.64382739198E+000, +0.00000000000E+000
+3.97577577578E+004, -3.64110619784E+000, +0.00000000000E+000
+4.10080080080E+004, -3.63027715027E+000, +0.00000000000E+000
+4.22582582583E+004, -3.61933500285E+000, +0.00000000000E+000
+4.35085085085E+004, -3.61212583476E+000, +0.00000000000E+000
+4.47587587588E+004, -3.61258489520E+000, +0.00000000000E+000
+4.60090090090E+004, -3.60200484748E+000, +0.00000000000E+000
+4.72592592593E+004, -3.59449676216E+000, +0.00000000000E+000
+4.85095095095E+004, -3.58964771914E+000, +0.00000000000E+000
+4.97597597598E+004, -3.58466995879E+000, +0.00000000000E+000
+5.10100100100E+004, -3.58032895960E+000, +0.00000000000E+000
+5.22602602603E+004, -3.57612724776E+000, +0.00000000000E+000
+5.35105105105E+004, -3.57223146016E+000, +0.00000000000E+000
+5.47607607608E+004, -3.56871282766E+000, +0.00000000000E+000
+5.60110110110E+004, -3.56545203585E+000, +0.00000000000E+000
+5.72612612613E+004, -3.56200572227E+000, +0.00000000000E+000
+5.85115115115E+004, -3.55905384382E+000, +0.00000000000E+000
+5.97617617618E+004, -3.55585441346E+000, +0.00000000000E+000
+6.10120120120E+004, -3.55366652978E+000, +0.00000000000E+000
+6.22622622623E+004, -3.55083911554E+000, +0.00000000000E+000
+6.35125125125E+004, -3.54868359118E+000, +0.00000000000E+000
+6.47627627628E+004, -3.54638408879E+000, +0.00000000000E+000
+6.60130130130E+004, -3.54364316914E+000, +0.00000000000E+000
+6.72632632633E+004, -3.54219643084E+000, +0.00000000000E+000
+6.85135135135E+004, -3.54020404325E+000, +0.00000000000E+000
+6.97637637638E+004, -3.53809370371E+000, +0.00000000000E+000
+7.10140140140E+004, -3.53670760627E+000, +0.00000000000E+000
+7.22642642643E+004, -3.53527619537E+000, +0.00000000000E+000
+7.35145145145E+004, -3.53439049790E+000, +0.00000000000E+000
+7.47647647648E+004, -3.53260280470E+000, +0.00000000000E+000
+7.60150150150E+004, -3.53099573963E+000, +0.00000000000E+000
+7.72652652653E+004, -3.52992751748E+000, +0.00000000000E+000
+7.85155155155E+004, -3.52930330382E+000, +0.00000000000E+000
+7.97657657658E+004, -3.52739391610E+000, +0.00000000000E+000
+8.10160160160E+004, -3.52619223394E+000, +0.00000000000E+000
+8.22662662663E+004, -3.52570351543E+000, +0.00000000000E+000
+8.35165165165E+004, -3.52501731799E+000, +0.00000000000E+000
+8.47667667668E+004, -3.52332517923E+000, +0.00000000000E+000
+8.60170170170E+004, -3.52263981729E+000, +0.00000000000E+000
+8.72672672673E+004, -3.52192157080E+000, +0.00000000000E+000
+8.85175175175E+004, -3.51992154522E+000, +0.00000000000E+000
+8.97677677678E+004, -3.51990007241E+000, +0.00000000000E+000
+9.10180180180E+004, -3.51957913465E+000, +0.00000000000E+000
+9.22682682683E+004, -3.51738522144E+000, +0.00000000000E+000
+9.35185185185E+004, -3.51733543064E+000, +0.00000000000E+000
+9.47687687688E+004, -3.51709675752E+000, +0.00000000000E+000
+9.60190190190E+004, -3.51594927848E+000, +0.00000000000E+000
+9.72692692693E+004, -3.51517736202E+000, +0.00000000000E+000
+9.85195195195E+004, -3.51491507020E+000, +0.00000000000E+000
+9.97697697698E+004, -3.51458575658E+000, +0.00000000000E+000
+1.01020020020E+005, -3.51251309407E+000, +0.00000000000E+000
+1.02270270270E+005, -3.51270536824E+000, +0.00000000000E+000
+1.03520520521E+005, -3.51294122414E+000, +0.00000000000E+000
+1.04770770771E+005, -3.51171994887E+000, +0.00000000000E+000
+1.06021021021E+005, -3.51209377719E+000, +0.00000000000E+000
+1.07271271271E+005, -3.51155883633E+000, +0.00000000000E+000
+1.08521521522E+005, -3.51033910200E+000, +0.00000000000E+000
+1.09771771772E+005, -3.51061468002E+000, +0.00000000000E+000
+1.11022022022E+005, -3.50947727482E+000, +0.00000000000E+000
+1.12272272272E+005, -3.50956679646E+000, +0.00000000000E+000
+1.13522522523E+005, -3.51033035722E+000, +0.00000000000E+000
+1.14772772773E+005, -3.50860030416E+000, +0.00000000000E+000
+1.16023023023E+005, -3.50861844483E+000, +0.00000000000E+000
+1.17273273273E+005, -3.50898072670E+000, +0.00000000000E+000
+1.18523523524E+005, -3.50787302417E+000, +0.00000000000E+000
+1.19773773774E+005, -3.50682207716E+000, +0.00000000000E+000
+1.21024024024E+005, -3.50659041004E+000, +0.00000000000E+000
+1.22274274274E+005, -3.50652423446E+000, +0.00000000000E+000
+1.23524524525E+005, -3.50674689178E+000, +0.00000000000E+000
+1.24774774775E+005, -3.50727531736E+000, +0.00000000000E+000
+1.26025025025E+005, -3.50562631255E+000, +0.00000000000E+000
+1.27275275275E+005, -3.50616495516E+000, +0.00000000000E+000
+1.28525525526E+005, -3.50635118503E+000, +0.00000000000E+000
+1.29775775776E+005, -3.50606594730E+000, +0.00000000000E+000
+1.31026026026E+005, -3.50569125293E+000, +0.00000000000E+000
+1.32276276276E+005, -3.50538317258E+000, +0.00000000000E+000
+1.33526526527E+005, -3.50482891033E+000, +0.00000000000E+000
+1.34776776777E+005, -3.50507130171E+000, +0.00000000000E+000
+1.36027027027E+005, -3.50546847546E+000, +0.00000000000E+000
+1.37277277277E+005, -3.50517019801E+000, +0.00000000000E+000
+1.38527527528E+005, -3.50485585074E+000, +0.00000000000E+000
+1.39777777778E+005, -3.50501981175E+000, +0.00000000000E+000
+1.41028028028E+005, -3.50503324642E+000, +0.00000000000E+000
+1.42278278278E+005, -3.50446871623E+000, +0.00000000000E+000
+1.43528528529E+005, -3.50427472010E+000, +0.00000000000E+000
+1.44778778779E+005, -3.50468265899E+000, +0.00000000000E+000
+1.46029029029E+005, -3.50459378367E+000, +0.00000000000E+000
+1.47279279279E+005, -3.50451497495E+000, +0.00000000000E+000
+1.48529529530E+005, -3.50378685800E+000, +0.00000000000E+000
+1.49779779780E+005, -3.50397361753E+000, +0.00000000000E+000
+1.51030030030E+005, -3.50342237099E+000, +0.00000000000E+000
+1.52280280280E+005, -3.50332385960E+000, +0.00000000000E+000
+1.53530530531E+005, -3.50476068434E+000, +0.00000000000E+000
+1.54780780781E+005, -3.50436061240E+000, +0.00000000000E+000
+1.56031031031E+005, -3.50400949981E+000, +0.00000000000E+000
+1.57281281281E+005, -3.50375302740E+000, +0.00000000000E+000
+1.58531531532E+005, -3.50383227078E+000, +0.00000000000E+000
+1.59781781782E+005, -3.50268524613E+000, +0.00000000000E+000
+1.61032032032E+005, -3.50389692637E+000, +0.00000000000E+000
+1.62282282282E+005, -3.50337298638E+000, +0.00000000000E+000
+1.63532532533E+005, -3.50372881545E+000, +0.00000000000E+000
+1.64782782783E+005, -3.50417128338E+000, +0.00000000000E+000
+1.66033033033E+005, -3.50346152187E+000, +0.00000000000E+000
+1.67283283283E+005, -3.50444725563E+000, +0.00000000000E+000
+1.68533533534E+005, -3.50252346180E+000, +0.00000000000E+000
+1.69783783784E+005, -3.50382365971E+000, +0.00000000000E+000
+1.71034034034E+005, -3.50275801141E+000, +0.00000000000E+000
+1.72284284284E+005, -3.50284044228E+000, +0.00000000000E+000
+1.73534534535E+005, -3.50375743852E+000, +0.00000000000E+000
+1.74784784785E+005, -3.50312844122E+000, +0.00000000000E+000
+1.76035035035E+005, -3.50428531163E+000, +0.00000000000E+000
+1.77285285285E+005, -3.50435809484E+000, +0.00000000000E+000
+1.78535535536E+005, -3.50413189433E+000, +0.00000000000E+000
+1.79785785786E+005, -3.50404381017E+000, +0.00000000000E+000
+1.81036036036E+005, -3.50404726994E+000, +0.00000000000E+000
+1.82286286286E+005, -3.50431992539E+000, +0.00000000000E+000
+1.83536536537E+005, -3.50341275665E+000, +0.00000000000E+000
+1.84786786787E+005, -3.50319633334E+000, +0.00000000000E+000
+1.86037037037E+005, -3.50295141739E+000, +0.00000000000E+000
+1.87287287287E+005, -3.50366927453E+000, +0.00000000000E+000
+1.88537537538E+005, -3.50315353307E+000, +0.00000000000E+000
+1.89787787788E+005, -3.50351445015E+000, +0.00000000000E+000
+1.91038038038E+005, -3.50458422865E+000, +0.00000000000E+000
+1.92288288288E+005, -3.50375799696E+000, +0.00000000000E+000
+1.93538538539E+005, -3.50417076767E+000, +0.00000000000E+000
+1.94788788789E+005, -3.50369474433E+000, +0.00000000000E+000
+1.96039039039E+005, -3.50493606849E+000, +0.00000000000E+000
+1.97289289289E+005, -3.50408088741E+000, +0.00000000000E+000
+1.98539539540E+005, -3.50435398367E+000, +0.00000000000E+000
+1.99789789790E+005, -3.50453848068E+000, +0.00000000000E+000
+2.01040040040E+005, -3.50433056056E+000, +0.00000000000E+000
+2.02290290290E+005, -3.50496886761E+000, +0.00000000000E+000
+2.03540540541E+005, -3.50374570394E+000, +0.00000000000E+000
+2.04790790791E+005, -3.50407301344E+000, +0.00000000000E+000
+2.06041041041E+005, -3.50499535406E+000, +0.00000000000E+000
+2.07291291291E+005, -3.50508586190E+000, +0.00000000000E+000
+2.08541541542E+005, -3.50574331685E+000, +0.00000000000E+000
+2.09791791792E+005, -3.50507810253E+000, +0.00000000000E+000
+2.11042042042E+005, -3.50470024268E+000, +0.00000000000E+000
+2.12292292292E+005, -3.50527665836E+000, +0.00000000000E+000
+2.13542542543E+005, -3.50472873687E+000, +0.00000000000E+000
+2.14792792793E+005, -3.50583410335E+000, +0.00000000000E+000
+2.16043043043E+005, -3.50536231868E+000, +0.00000000000E+000
+2.17293293293E+005, -3.50488615703E+000, +0.00000000000E+000
+2.18543543544E+005, -3.50522187502E+000, +0.00000000000E+000
+2.19793793794E+005, -3.50565820144E+000, +0.00000000000E+000
+2.21044044044E+005, -3.50591182669E+000, +0.00000000000E+000
+2.22294294294E+005, -3.50620255580E+000, +0.00000000000E+000
+2.23544544545E+005, -3.50587774042E+000, +0.00000000000E+000
+2.24794794795E+005, -3.50544531543E+000, +0.00000000000E+000
+2.26045045045E+005, -3.50505982421E+000, +0.00000000000E+000
+2.27295295295E+005, -3.50635470512E+000, +0.00000000000E+000
+2.28545545546E+005, -3.50665177865E+000, +0.00000000000E+000
+2.29795795796E+005, -3.50686749098E+000, +0.00000000000E+000
+2.31046046046E+005, -3.50595711586E+000, +0.00000000000E+000
+2.32296296296E+005, -3.50685946287E+000, +0.00000000000E+000
+2.33546546547E+005, -3.50673290454E+000, +0.00000000000E+000
+2.34796796797E+005, -3.50766236078E+000, +0.00000000000E+000
+2.36047047047E+005, -3.50721314536E+000, +0.00000000000E+000
+2.37297297297E+005, -3.50678897488E+000, +0.00000000000E+000
+2.38547547548E+005, -3.50655013036E+000, +0.00000000000E+000
+2.39797797798E+005, -3.50781119129E+000, +0.00000000000E+000
+2.41048048048E+005, -3.50734987454E+000, +0.00000000000E+000
+2.42298298298E+005, -3.50680657775E+000, +0.00000000000E+000
+2.43548548549E+005, -3.50754759355E+000, +0.00000000000E+000
+2.44798798799E+005, -3.50731401607E+000, +0.00000000000E+000
+2.46049049049E+005, -3.50785429775E+000, +0.00000000000E+000
+2.47299299299E+005, -3.50847235676E+000, +0.00000000000E+000
+2.48549549550E+005, -3.50783399358E+000, +0.00000000000E+000
+2.49799799800E+005, -3.50737373257E+000, +0.00000000000E+000
+2.51050050050E+005, -3.50747920917E+000, +0.00000000000E+000
+2.52300300300E+005, -3.50801705772E+000, +0.00000000000E+000
+2.53550550551E+005, -3.50911641803E+000, +0.00000000000E+000
+2.54800800801E+005, -3.50680880476E+000, +0.00000000000E+000
+2.56051051051E+005, -3.50686388972E+000, +0.00000000000E+000
+2.57301301301E+005, -3.50959704565E+000, +0.00000000000E+000
+2.58551551552E+005, -3.50778187114E+000, +0.00000000000E+000
+2.59801801802E+005, -3.50886008407E+000, +0.00000000000E+000
+2.61052052052E+005, -3.50774338381E+000, +0.00000000000E+000
+2.62302302302E+005, -3.50884182953E+000, +0.00000000000E+000
+2.63552552553E+005, -3.50852747157E+000, +0.00000000000E+000
+2.64802802803E+005, -3.50990030524E+000, +0.00000000000E+000
+2.66053053053E+005, -3.50986785911E+000, +0.00000000000E+000
+2.67303303303E+005, -3.50948363969E+000, +0.00000000000E+000
+2.68553553554E+005, -3.50982517695E+000, +0.00000000000E+000
+2.69803803804E+005, -3.50978423599E+000, +0.00000000000E+000
+2.71054054054E+005, -3.51045152258E+000, +0.00000000000E+000
+2.72304304304E+005, -3.50976765294E+000, +0.00000000000E+000
+2.73554554555E+005, -3.51039735086E+000, +0.00000000000E+000
+2.74804804805E+005, -3.50964381477E+000, +0.00000000000E+000
+2.76055055055E+005, -3.50965979331E+000, +0.00000000000E+000
+2.77305305305E+005, -3.51113239807E+000, +0.00000000000E+000
+2.78555555556E+005, -3.51070094136E+000, +0.00000000000E+000
+2.79805805806E+005, -3.51183418367E+000, +0.00000000000E+000
+2.81056056056E+005, -3.51111252249E+000, +0.00000000000E+000
+2.82306306306E+005, -3.51025334512E+000, +0.00000000000E+000
+2.83556556557E+005, -3.51101291952E+000, +0.00000000000E+000
+2.84806806807E+005, -3.51202969225E+000, +0.00000000000E+000
+2.86057057057E+005, -3.51189337432E+000, +0.00000000000E+000
+2.87307307307E+005, -3.51231477090E+000, +0.00000000000E+000
+2.88557557558E+005, -3.51260640245E+000, +0.00000000000E+000
+2.89807807808E+005, -3.51283528944E+000, +0.00000000000E+000
+2.91058058058E+005, -3.51291183420E+000, +0.00000000000E+000
+2.92308308308E+005, -3.51321271339E+000, +0.00000000000E+000
+2.93558558559E+005, -3.51405095392E+000, +0.00000000000E+000
+2.94808808809E+005, -3.51365357269E+000, +0.00000000000E+000
+2.96059059059E+005, -3.51525439312E+000, +0.00000000000E+000
+2.97309309309E+005, -3.51406229545E+000, +0.00000000000E+000
+2.98559559560E+005, -3.51431267396E+000, +0.00000000000E+000
+2.99809809810E+005, -3.51499433707E+000, +0.00000000000E+000
+3.01060060060E+005, -3.51454141738E+000, +0.00000000000E+000
+3.02310310310E+005, -3.51585626612E+000, +0.00000000000E+000
+3.03560560561E+005, -3.51518050346E+000, +0.00000000000E+000
+3.04810810811E+005, -3.51647582415E+000, +0.00000000000E+000
+3.06061061061E+005, -3.51573158362E+000, +0.00000000000E+000
+3.07311311311E+005, -3.51617095001E+000, +0.00000000000E+000
+3.08561561562E+005, -3.51624904162E+000, +0.00000000000E+000
+3.09811811812E+005, -3.51660279037E+000, +0.00000000000E+000
+3.11062062062E+005, -3.51643019378E+000, +0.00000000000E+000
+3.12312312312E+005, -3.51552998331E+000, +0.00000000000E+000
+3.13562562563E+005, -3.51721416790E+000, +0.00000000000E+000
+3.14812812813E+005, -3.51662168626E+000, +0.00000000000E+000
+3.16063063063E+005, -3.51666032018E+000, +0.00000000000E+000
+3.17313313313E+005, -3.51665346778E+000, +0.00000000000E+000
+3.18563563564E+005, -3.51736519521E+000, +0.00000000000E+000
+3.19813813814E+005, -3.51797802284E+000, +0.00000000000E+000
+3.21064064064E+005, -3.51747759015E+000, +0.00000000000E+000
+3.22314314314E+005, -3.51807387718E+000, +0.00000000000E+000
+3.23564564565E+005, -3.51764824693E+000, +0.00000000000E+000
+3.24814814815E+005, -3.51767439916E+000, +0.00000000000E+000
+3.26065065065E+005, -3.51801424831E+000, +0.00000000000E+000
+3.27315315315E+005, -3.51860476553E+000, +0.00000000000E+000
+3.28565565566E+005, -3.51875216887E+000, +0.00000000000E+000
+3.29815815816E+005, -3.51910060959E+000, +0.00000000000E+000
+3.31066066066E+005, -3.51863841421E+000, +0.00000000000E+000
+3.32316316316E+005, -3.51910508485E+000, +0.00000000000E+000
+3.33566566567E+005, -3.51881727119E+000, +0.00000000000E+000
+3.34816816817E+005, -3.51947116210E+000, +0.00000000000E+000
+3.36067067067E+005, -3.51850754067E+000, +0.00000000000E+000
+3.37317317317E+005, -3.51981764465E+000, +0.00000000000E+000
+3.38567567568E+005, -3.51933766023E+000, +0.00000000000E+000
+3.39817817818E+005, -3.52039021201E+000, +0.00000000000E+000
+3.41068068068E+005, -3.52024888873E+000, +0.00000000000E+000
+3.42318318318E+005, -3.52015693277E+000, +0.00000000000E+000
+3.43568568569E+005, -3.52114169098E+000, +0.00000000000E+000
+3.44818818819E+005, -3.51984742090E+000, +0.00000000000E+000
+3.46069069069E+005, -3.52181442247E+000, +0.00000000000E+000
+3.47319319319E+005, -3.52102548556E+000, +0.00000000000E+000
+3.48569569570E+005, -3.52169832819E+000, +0.00000000000E+000
+3.49819819820E+005, -3.52140921981E+000, +0.00000000000E+000
+3.51070070070E+005, -3.52145329411E+000, +0.00000000000E+000
+3.52320320320E+005, -3.52162740109E+000, +0.00000000000E+000
+3.53570570571E+005, -3.52129518254E+000, +0.00000000000E+000
+3.54820820821E+005, -3.52178759854E+000, +0.00000000000E+000
+3.56071071071E+005, -3.52177992404E+000, +0.00000000000E+000
+3.57321321321E+005, -3.52226167902E+000, +0.00000000000E+000
+3.58571571572E+005, -3.52308519320E+000, +0.00000000000E+000
+3.59821821822E+005, -3.52307028580E+000, +0.00000000000E+000
+3.61072072072E+005, -3.52222394085E+000, +0.00000000000E+000
+3.62322322322E+005, -3.52257046196E+000, +0.00000000000E+000
+3.63572572573E+005, -3.52215393302E+000, +0.00000000000E+000
+3.64822822823E+005, -3.52360675119E+000, +0.00000000000E+000
+3.66073073073E+005, -3.52315143034E+000, +0.00000000000E+000
+3.67323323323E+005, -3.52306067179E+000, +0.00000000000E+000
+3.68573573574E+005, -3.52326494275E+000, +0.00000000000E+000
+3.69823823824E+005, -3.52348900792E+000, +0.00000000000E+000
+3.71074074074E+005, -3.52319144342E+000, +0.00000000000E+000
+3.72324324324E+005, -3.52388857145E+000, +0.00000000000E+000
+3.73574574575E+005, -3.52459120218E+000, +0.00000000000E+000
+3.74824824825E+005, -3.52337689715E+000, +0.00000000000E+000
+3.76075075075E+005, -3.52324769732E+000, +0.00000000000E+000
+3.77325325325E+005, -3.52378181591E+000, +0.00000000000E+000
+3.78575575576E+005, -3.52502583077E+000, +0.00000000000E+000
+3.79825825826E+005, -3.52395891338E+000, +0.00000000000E+000
+3.81076076076E+005, -3.52395104272E+000, +0.00000000000E+000
+3.82326326326E+005, -3.52475846187E+000, +0.00000000000E+000
+3.83576576577E+005, -3.52480784047E+000, +0.00000000000E+000
+3.84826826827E+005, -3.52489787933E+000, +0.00000000000E+000
+3.86077077077E+005, -3.52644057943E+000, +0.00000000000E+000
+3.87327327327E+005, -3.52551320647E+000, +0.00000000000E+000
+3.88577577578E+005, -3.52465862776E+000, +0.00000000000E+000
+3.89827827828E+005, -3.52452588362E+000, +0.00000000000E+000
+3.91078078078E+005, -3.52507790103E+000, +0.00000000000E+000
+3.92328328328E+005, -3.52586643238E+000, +0.00000000000E+000
+3.93578578579E+005, -3.52659369485E+000, +0.00000000000E+000
+3.94828828829E+005, -3.52567208202E+000, +0.00000000000E+000
