"# Channel 1"
"# Trace 2"
Frequency, Formatted Data, Formatted Data
+1.00000000000E+003, +8.26576145887E+001, +0.00000000000E+000
+2.25025025025E+003, +7.52762802941E+001, +0.00000000000E+000
+3.50050050050E+003, +6.83454740543E+001, +0.00000000000E+000
+4.75075075075E+003, +6.20124752589E+001, +0.00000000000E+000
+6.00100100100E+003, +5.63203048541E+001, +0.00000000000E+000
+7.25125125125E+003, +5.12716180110E+001, +0.00000000000E+000
+8.50150150150E+003, +4.68119097096E+001, +0.00000000000E+000
+9.75175175175E+003, +4.28973860981E+001, +0.00000000000E+000
+1.10020020020E+004, +3.94480963276E+001, +0.00000000000E+000
+1.22522522523E+004, +3.64148310245E+001, +0.00000000000E+000
+1.35025025025E+004, +3.37458198565E+001, +0.00000000000E+000
+1.47527527528E+004, +3.13769493339E+001, +0.00000000000E+000
+1.60030030030E+004, +2.92742916815E+001, +0.00000000000E+000
+1.72532532533E+004, +2.73978845610E+001, +0.00000000000E+000
+1.85035035035E+004, +2.57167169764E+001, +0.00000000000E+000
+1.97537537538E+004, +2.42055484860E+001, +0.00000000000E+000
+2.10040040040E+004, +2.28345505595E+001, +0.00000000000E+000
+2.22542542543E+004, +2.16049807671E+001, +0.00000000000E+000
+2.35045045045E+004, +2.04681232922E+001, +0.00000000000E+000
+2.47547547548E+004, +1.94278062010E+001, +0.00000000000E+000
+2.60050050050E+004, +1.84697672368E+001, +0.00000000000E+000
+2.72552552553E+004, +1.75772445555E+001, +0.00000000000E+000
+2.85055055055E+004, +1.66978976152E+001, +0.00000000000E+000
+2.97557557558E+004, +1.57383116877E+001, +0.00000000000E+000
+3.10060060060E+004, +1.48027083388E+001, +0.00000000000E+000
+3.22562562563E+004, +1.53625893654E+001, +0.00000000000E+000
+3.35065065065E+004, +1.48903480386E+001, +0.00000000000E+000
+3.47567567568E+004, +1.39883865710E+001, +0.00000000000E+000
+3.60070070070E+004, +1.34743467442E+001, +0.00000000000E+000
+3.72572572573E+004, +1.30337241679E+001, +0.00000000000E+000
+3.85075075075E+004, +1.25381075993E+001, +0.00000000000E+000
+3.97577577578E+004, +1.20927157264E+001, +0.00000000000E+000
+4.10080080080E+004, +1.17475633571E+001, +0.00000000000E+000
+4.22582582583E+004, +1.13570637316E+001, +0.00000000000E+000
+4.35085085085E+004, +1.09985094466E+001, +0.00000000000E+000
+4.47587587588E+004, +1.06896310733E+001, +0.00000000000E+000
+4.60090090090E+004, +1.03937125715E+001, +0.00000000000E+000
+4.72592592593E+004, +1.01083619824E+001, +0.00000000000E+000
+4.85095095095E+004, +9.84164518931E+000, +0.00000000000E+000
+4.97597597598E+004, +9.57898840716E+000, +0.00000000000E+000
+5.10100100100E+004, +9.33517824093E+000, +0.00000000000E+000
+5.22602602603E+004, +9.09723726919E+000, +0.00000000000E+000
+5.35105105105E+004, +8.87148993998E+000, +0.00000000000E+000
+5.47607607608E+004, +8.66192745909E+000, +0.00000000000E+000
+5.60110110110E+004, +8.46288348791E+000, +0.00000000000E+000
+5.72612612613E+004, +8.26958069466E+000, +0.00000000000E+000
+5.85115115115E+004, +8.08597600218E+000, +0.00000000000E+000
+5.97617617618E+004, +7.90748709875E+000, +0.00000000000E+000
+6.10120120120E+004, +7.74026601719E+000, +0.00000000000E+000
+6.22622622623E+004, +7.57577316874E+000, +0.00000000000E+000
+6.35125125125E+004, +7.42137639713E+000, +0.00000000000E+000
+6.47627627628E+004, +7.27192537780E+000, +0.00000000000E+000
+6.60130130130E+004, +7.12731090219E+000, +0.00000000000E+000
+6.72632632633E+004, +6.99010944426E+000, +0.00000000000E+000
+6.85135135135E+004, +6.85510369217E+000, +0.00000000000E+000
+6.97637637638E+004, +6.72715282759E+000, +0.00000000000E+000
+7.10140140140E+004, +6.60333551662E+000, +0.00000000000E+000
+7.22642642643E+004, +6.48520090717E+000, +0.00000000000E+000
+7.35145145145E+004, +6.37174864353E+000, +0.00000000000E+000
+7.47647647648E+004, +6.26019560873E+000, +0.00000000000E+000
+7.60150150150E+004, +6.15205439787E+000, +0.00000000000E+000
+7.72652652653E+004, +6.04765920092E+000, +0.00000000000E+000
+7.85155155155E+004, +5.95023412219E+000, +0.00000000000E+000
+7.97657657658E+004, +5.85115914626E+000, +0.00000000000E+000
+8.10160160160E+004, +5.75822174765E+000, +0.00000000000E+000
+8.22662662663E+004, +5.67048718069E+000, +0.00000000000E+000
+8.35165165165E+004, +5.57928096712E+000, +0.00000000000E+000
+8.47667667668E+004, +5.49343094397E+000, +0.00000000000E+000
+8.60170170170E+004, +5.40792198620E+000, +0.00000000000E+000
+8.72672672673E+004, +5.32850904429E+000, +0.00000000000E+000
+8.85175175175E+004, +5.25355103211E+000, +0.00000000000E+000
+8.97677677678E+004, +5.17419121773E+000, +0.00000000000E+000
+9.10180180180E+004, +5.09976879835E+000, +0.00000000000E+000
+9.22682682683E+004, +5.03085568042E+000, +0.00000000000E+000
+9.35185185185E+004, +4.96272112714E+000, +0.00000000000E+000
+9.47687687688E+004, +4.89740873122E+000, +0.00000000000E+000
+9.60190190190E+004, +4.82659584196E+000, +0.00000000000E+000
+9.72692692693E+004, +4.76213216363E+000, +0.00000000000E+000
+9.85195195195E+004, +4.69938969336E+000, +0.00000000000E+000
+9.97697697698E+004, +4.63577461687E+000, +0.00000000000E+000
+1.01020020020E+005, +4.57745366933E+000, +0.00000000000E+000
+1.02270270270E+005, +4.51809329860E+000, +0.00000000000E+000
+1.03520520521E+005, +4.46188932089E+000, +0.00000000000E+000
+1.04770770771E+005, +4.40262893942E+000, +0.00000000000E+000
+1.06021021021E+005, +4.34978814567E+000, +0.00000000000E+000
+1.07271271271E+005, +4.29862794608E+000, +0.00000000000E+000
+1.08521521522E+005, +4.24451929596E+000, +0.00000000000E+000
+1.09771771772E+005, +4.19655791724E+000, +0.00000000000E+000
+1.11022022022E+005, +4.14664237731E+000, +0.00000000000E+000
+1.12272272272E+005, +4.09975778874E+000, +0.00000000000E+000
+1.13522522523E+005, +4.05004028045E+000, +0.00000000000E+000
+1.14772772773E+005, +4.00143967596E+000, +0.00000000000E+000
+1.16023023023E+005, +3.95781645353E+000, +0.00000000000E+000
+1.17273273273E+005, +3.91452405501E+000, +0.00000000000E+000
+1.18523523524E+005, +3.87198744933E+000, +0.00000000000E+000
+1.19773773774E+005, +3.82817606238E+000, +0.00000000000E+000
+1.21024024024E+005, +3.78530102584E+000, +0.00000000000E+000
+1.22274274274E+005, +3.74548614660E+000, +0.00000000000E+000
+1.23524524525E+005, +3.70482724625E+000, +0.00000000000E+000
+1.24774774775E+005, +3.66649770394E+000, +0.00000000000E+000
+1.26025025025E+005, +3.62709266800E+000, +0.00000000000E+000
+1.27275275275E+005, +3.59198766105E+000, +0.00000000000E+000
+1.28525525526E+005, +3.55194256222E+000, +0.00000000000E+000
+1.29775775776E+005, +3.51777617988E+000, +0.00000000000E+000
+1.31026026026E+005, +3.47683133322E+000, +0.00000000000E+000
+1.32276276276E+005, +3.44495286116E+000, +0.00000000000E+000
+1.33526526527E+005, +3.41280551403E+000, +0.00000000000E+000
+1.34776776777E+005, +3.37499560021E+000, +0.00000000000E+000
+1.36027027027E+005, +3.34292278885E+000, +0.00000000000E+000
+1.37277277277E+005, +3.30671767454E+000, +0.00000000000E+000
+1.38527527528E+005, +3.28200390921E+000, +0.00000000000E+000
+1.39777777778E+005, +3.24481647330E+000, +0.00000000000E+000
+1.41028028028E+005, +3.21526651459E+000, +0.00000000000E+000
+1.42278278278E+005, +3.18659730594E+000, +0.00000000000E+000
+1.43528528529E+005, +3.15409796588E+000, +0.00000000000E+000
+1.44778778779E+005, +3.12527202397E+000, +0.00000000000E+000
+1.46029029029E+005, +3.09495962456E+000, +0.00000000000E+000
+1.47279279279E+005, +3.06689077171E+000, +0.00000000000E+000
+1.48529529530E+005, +3.03543127022E+000, +0.00000000000E+000
+1.49779779780E+005, +3.00763650794E+000, +0.00000000000E+000
+1.51030030030E+005, +2.98324165525E+000, +0.00000000000E+000
+1.52280280280E+005, +2.95623763581E+000, +0.00000000000E+000
+1.53530530531E+005, +2.92856670136E+000, +0.00000000000E+000
+1.54780780781E+005, +2.90414072864E+000, +0.00000000000E+000
+1.56031031031E+005, +2.88475816222E+000, +0.00000000000E+000
+1.57281281281E+005, +2.85293253504E+000, +0.00000000000E+000
+1.58531531532E+005, +2.83589689451E+000, +0.00000000000E+000
+1.59781781782E+005, +2.80496007917E+000, +0.00000000000E+000
+1.61032032032E+005, +2.78292613886E+000, +0.00000000000E+000
+1.62282282282E+005, +2.76040956343E+000, +0.00000000000E+000
+1.63532532533E+005, +2.73383129342E+000, +0.00000000000E+000
+1.64782782783E+005, +2.71235144666E+000, +0.00000000000E+000
+1.66033033033E+005, +2.68734164627E+000, +0.00000000000E+000
+1.67283283283E+005, +2.66831311950E+000, +0.00000000000E+000
+1.68533533534E+005, +2.64310235313E+000, +0.00000000000E+000
+1.69783783784E+005, +2.62518961414E+000, +0.00000000000E+000
+1.71034034034E+005, +2.60027776759E+000, +0.00000000000E+000
+1.72284284284E+005, +2.57819926036E+000, +0.00000000000E+000
+1.73534534535E+005, +2.55911594317E+000, +0.00000000000E+000
+1.74784784785E+005, +2.53788518962E+000, +0.00000000000E+000
+1.76035035035E+005, +2.51767272954E+000, +0.00000000000E+000
+1.77285285285E+005, +2.49661899019E+000, +0.00000000000E+000
+1.78535535536E+005, +2.47808801318E+000, +0.00000000000E+000
+1.79785785786E+005, +2.46120646047E+000, +0.00000000000E+000
+1.81036036036E+005, +2.44056568785E+000, +0.00000000000E+000
+1.82286286286E+005, +2.41840507682E+000, +0.00000000000E+000
+1.83536536537E+005, +2.40273342067E+000, +0.00000000000E+000
+1.84786786787E+005, +2.38096130695E+000, +0.00000000000E+000
+1.86037037037E+005, +2.36624479189E+000, +0.00000000000E+000
+1.87287287287E+005, +2.34968918942E+000, +0.00000000000E+000
+1.88537537538E+005, +2.33166362997E+000, +0.00000000000E+000
+1.89787787788E+005, +2.31132164813E+000, +0.00000000000E+000
+1.91038038038E+005, +2.29640984895E+000, +0.00000000000E+000
+1.92288288288E+005, +2.27545653698E+000, +0.00000000000E+000
+1.93538538539E+005, +2.25978191456E+000, +0.00000000000E+000
+1.94788788789E+005, +2.24263188270E+000, +0.00000000000E+000
+1.96039039039E+005, +2.22473944630E+000, +0.00000000000E+000
+1.97289289289E+005, +2.21095256465E+000, +0.00000000000E+000
+1.98539539540E+005, +2.19325992160E+000, +0.00000000000E+000
+1.99789789790E+005, +2.18232799684E+000, +0.00000000000E+000
+2.01040040040E+005, +2.16345595587E+000, +0.00000000000E+000
+2.02290290290E+005, +2.14664271408E+000, +0.00000000000E+000
+2.03540540541E+005, +2.12961571740E+000, +0.00000000000E+000
+2.04790790791E+005, +2.11661574439E+000, +0.00000000000E+000
+2.06041041041E+005, +2.10114978159E+000, +0.00000000000E+000
+2.07291291291E+005, +2.08075521170E+000, +0.00000000000E+000
+2.08541541542E+005, +2.06846982997E+000, +0.00000000000E+000
+2.09791791792E+005, +2.05386389063E+000, +0.00000000000E+000
+2.11042042042E+005, +2.04177737493E+000, +0.00000000000E+000
+2.12292292292E+005, +2.02716434812E+000, +0.00000000000E+000
+2.13542542543E+005, +2.01449045318E+000, +0.00000000000E+000
+2.14792792793E+005, +1.99742031407E+000, +0.00000000000E+000
+2.16043043043E+005, +1.98342231707E+000, +0.00000000000E+000
+2.17293293293E+005, +1.97137539001E+000, +0.00000000000E+000
+2.18543543544E+005, +1.95617950982E+000, +0.00000000000E+000
+2.19793793794E+005, +1.94361268875E+000, +0.00000000000E+000
+2.21044044044E+005, +1.92923097543E+000, +0.00000000000E+000
+2.22294294294E+005, +1.92026901974E+000, +0.00000000000E+000
+2.23544544545E+005, +1.90228032086E+000, +0.00000000000E+000
+2.24794794795E+005, +1.89177104808E+000, +0.00000000000E+000
+2.26045045045E+005, +1.87834866060E+000, +0.00000000000E+000
+2.27295295295E+005, +1.86239367347E+000, +0.00000000000E+000
+2.28545545546E+005, +1.85484012494E+000, +0.00000000000E+000
+2.29795795796E+005, +1.84354623113E+000, +0.00000000000E+000
+2.31046046046E+005, +1.82699906592E+000, +0.00000000000E+000
+2.32296296296E+005, +1.81281697990E+000, +0.00000000000E+000
+2.33546546547E+005, +1.80491526075E+000, +0.00000000000E+000
+2.34796796797E+005, +1.79280157737E+000, +0.00000000000E+000
+2.36047047047E+005, +1.77821471734E+000, +0.00000000000E+000
+2.37297297297E+005, +1.76831694107E+000, +0.00000000000E+000
+2.38547547548E+005, +1.75490141659E+000, +0.00000000000E+000
+2.39797797798E+005, +1.74194506192E+000, +0.00000000000E+000
+2.41048048048E+005, +1.73127753950E+000, +0.00000000000E+000
+2.42298298298E+005, +1.72053078509E+000, +0.00000000000E+000
+2.43548548549E+005, +1.71357552913E+000, +0.00000000000E+000
+2.44798798799E+005, +1.70172976391E+000, +0.00000000000E+000
+2.46049049049E+005, +1.68679660632E+000, +0.00000000000E+000
+2.47299299299E+005, +1.68002435911E+000, +0.00000000000E+000
+2.48549549550E+005, +1.67577368870E+000, +0.00000000000E+000
+2.49799799800E+005, +1.65632812162E+000, +0.00000000000E+000
+2.51050050050E+005, +1.64223895617E+000, +0.00000000000E+000
+2.52300300300E+005, +1.64000243756E+000, +0.00000000000E+000
+2.53550550551E+005, +1.62958309291E+000, +0.00000000000E+000
+2.54800800801E+005, +1.62839131454E+000, +0.00000000000E+000
+2.56051051051E+005, +1.60823688098E+000, +0.00000000000E+000
+2.57301301301E+005, +1.59528098081E+000, +0.00000000000E+000
+2.58551551552E+005, +1.59278418653E+000, +0.00000000000E+000
+2.59801801802E+005, +1.57687639085E+000, +0.00000000000E+000
+2.61052052052E+005, +1.56713085361E+000, +0.00000000000E+000
+2.62302302302E+005, +1.56242467176E+000, +0.00000000000E+000
+2.63552552553E+005, +1.55054461660E+000, +0.00000000000E+000
+2.64802802803E+005, +1.54017225493E+000, +0.00000000000E+000
+2.66053053053E+005, +1.53190438281E+000, +0.00000000000E+000
+2.67303303303E+005, +1.52088100712E+000, +0.00000000000E+000
+2.68553553554E+005, +1.51045176601E+000, +0.00000000000E+000
+2.69803803804E+005, +1.50090863210E+000, +0.00000000000E+000
+2.71054054054E+005, +1.48828540912E+000, +0.00000000000E+000
+2.72304304304E+005, +1.48172934070E+000, +0.00000000000E+000
+2.73554554555E+005, +1.47182741691E+000, +0.00000000000E+000
+2.74804804805E+005, +1.46368753170E+000, +0.00000000000E+000
+2.76055055055E+005, +1.45354556641E+000, +0.00000000000E+000
+2.77305305305E+005, +1.44250572311E+000, +0.00000000000E+000
+2.78555555556E+005, +1.43436350449E+000, +0.00000000000E+000
+2.79805805806E+005, +1.42763745901E+000, +0.00000000000E+000
+2.81056056056E+005, +1.41622739855E+000, +0.00000000000E+000
+2.82306306306E+005, +1.40880657145E+000, +0.00000000000E+000
+2.83556556557E+005, +1.39906983893E+000, +0.00000000000E+000
+2.84806806807E+005, +1.39788343137E+000, +0.00000000000E+000
+2.86057057057E+005, +1.38082252236E+000, +0.00000000000E+000
+2.87307307307E+005, +1.37788284233E+000, +0.00000000000E+000
+2.88557557558E+005, +1.36776394531E+000, +0.00000000000E+000
+2.89807807808E+005, +1.35709868395E+000, +0.00000000000E+000
+2.91058058058E+005, +1.35032339995E+000, +0.00000000000E+000
+2.92308308308E+005, +1.34127814747E+000, +0.00000000000E+000
+2.93558558559E+005, +1.32971090677E+000, +0.00000000000E+000
+2.94808808809E+005, +1.32749084777E+000, +0.00000000000E+000
+2.96059059059E+005, +1.31782450142E+000, +0.00000000000E+000
+2.97309309309E+005, +1.31087480131E+000, +0.00000000000E+000
+2.98559559560E+005, +1.29961449950E+000, +0.00000000000E+000
+2.99809809810E+005, +1.29037519506E+000, +0.00000000000E+000
+3.01060060060E+005, +1.28581817616E+000, +0.00000000000E+000
+3.02310310310E+005, +1.27903858576E+000, +0.00000000000E+000
+3.03560560561E+005, +1.27012494315E+000, +0.00000000000E+000
+3.04810810811E+005, +1.25986122484E+000, +0.00000000000E+000
+3.06061061061E+005, +1.25157026705E+000, +0.00000000000E+000
+3.07311311311E+005, +1.24316392378E+000, +0.00000000000E+000
+3.08561561562E+005, +1.24246741138E+000, +0.00000000000E+000
+3.09811811812E+005, +1.23232528074E+000, +0.00000000000E+000
+3.11062062062E+005, +1.22442127035E+000, +0.00000000000E+000
+3.12312312312E+005, +1.21603783181E+000, +0.00000000000E+000
+3.13562562563E+005, +1.21065719931E+000, +0.00000000000E+000
+3.14812812813E+005, +1.20085571628E+000, +0.00000000000E+000
+3.16063063063E+005, +1.19715143536E+000, +0.00000000000E+000
+3.17313313313E+005, +1.18692125342E+000, +0.00000000000E+000
+3.18563563564E+005, +1.17938181883E+000, +0.00000000000E+000
+3.19813813814E+005, +1.17299956281E+000, +0.00000000000E+000
+3.21064064064E+005, +1.16561376580E+000, +0.00000000000E+000
+3.22314314314E+005, +1.16093692236E+000, +0.00000000000E+000
+3.23564564565E+005, +1.15699774817E+000, +0.00000000000E+000
+3.24814814815E+005, +1.14597543242E+000, +0.00000000000E+000
+3.26065065065E+005, +1.13938604982E+000, +0.00000000000E+000
+3.27315315315E+005, +1.13193565281E+000, +0.00000000000E+000
+3.28565565566E+005, +1.12381433576E+000, +0.00000000000E+000
+3.29815815816E+005, +1.12349479486E+000, +0.00000000000E+000
+3.31066066066E+005, +1.11447405857E+000, +0.00000000000E+000
+3.32316316316E+005, +1.10633348258E+000, +0.00000000000E+000
+3.33566566567E+005, +1.10132959332E+000, +0.00000000000E+000
+3.34816816817E+005, +1.09105513101E+000, +0.00000000000E+000
+3.36067067067E+005, +1.08794908898E+000, +0.00000000000E+000
+3.37317317317E+005, +1.08047731675E+000, +0.00000000000E+000
+3.38567567568E+005, +1.07440485250E+000, +0.00000000000E+000
+3.39817817818E+005, +1.06631093034E+000, +0.00000000000E+000
+3.41068068068E+005, +1.05901646136E+000, +0.00000000000E+000
+3.42318318318E+005, +1.05701929272E+000, +0.00000000000E+000
+3.43568568569E+005, +1.04886523864E+000, +0.00000000000E+000
+3.44818818819E+005, +1.04030104044E+000, +0.00000000000E+000
+3.46069069069E+005, +1.03416251522E+000, +0.00000000000E+000
+3.47319319319E+005, +1.03211384874E+000, +0.00000000000E+000
+3.48569569570E+005, +1.02086227846E+000, +0.00000000000E+000
+3.49819819820E+005, +1.01184291429E+000, +0.00000000000E+000
+3.51070070070E+005, +1.00739389785E+000, +0.00000000000E+000
+3.52320320320E+005, +1.00436853401E+000, +0.00000000000E+000
+3.53570570571E+005, +1.00205700735E+000, +0.00000000000E+000
+3.54820820821E+005, +9.93677177315E-001, +0.00000000000E+000
+3.56071071071E+005, +9.86018470686E-001, +0.00000000000E+000
+3.57321321321E+005, +9.85610123908E-001, +0.00000000000E+000
+3.58571571572E+005, +9.76985834672E-001, +0.00000000000E+000
+3.59821821822E+005, +9.67449665338E-001, +0.00000000000E+000
+3.61072072072E+005, +9.64494536297E-001, +0.00000000000E+000
+3.62322322322E+005, +9.58400415411E-001, +0.00000000000E+000
+3.63572572573E+005, +9.49809064652E-001, +0.00000000000E+000
+3.64822822823E+005, +9.48882668935E-001, +0.00000000000E+000
+3.66073073073E+005, +9.39282997549E-001, +0.00000000000E+000
+3.67323323323E+005, +9.36207481082E-001, +0.00000000000E+000
+3.68573573574E+005, +9.30424543117E-001, +0.00000000000E+000
+3.69823823824E+005, +9.26587739267E-001, +0.00000000000E+000
+3.71074074074E+005, +9.18565608053E-001, +0.00000000000E+000
+3.72324324324E+005, +9.12306075290E-001, +0.00000000000E+000
+3.73574574575E+005, +9.08864208573E-001, +0.00000000000E+000
+3.74824824825E+005, +9.04152828619E-001, +0.00000000000E+000
+3.76075075075E+005, +8.94529660503E-001, +0.00000000000E+000
+3.77325325325E+005, +8.93253978682E-001, +0.00000000000E+000
+3.78575575576E+005, +8.86870470575E-001, +0.00000000000E+000
+3.79825825826E+005, +8.79730012563E-001, +0.00000000000E+000
+3.81076076076E+005, +8.74795947798E-001, +0.00000000000E+000
+3.82326326326E+005, +8.69642417442E-001, +0.00000000000E+000
+3.83576576577E+005, +8.65194039582E-001, +0.00000000000E+000
+3.84826826827E+005, +8.58080125566E-001, +0.00000000000E+000
+3.86077077077E+005, +8.53123939684E-001, +0.00000000000E+000
+3.87327327327E+005, +8.47763797903E-001, +0.00000000000E+000
+3.88577577578E+005, +8.43239082630E-001, +0.00000000000E+000
+3.89827827828E+005, +8.36483401248E-001, +0.00000000000E+000
+3.91078078078E+005, +8.35123909191E-001, +0.00000000000E+000
+3.92328328328E+005, +8.28809778831E-001, +0.00000000000E+000
+3.93578578579E+005, +8.26386956873E-001, +0.00000000000E+000
+3.94828828829E+005, +8.18296516319E-001, +0.00000000000E+000
