frequency,amplitude,phase
1e3,0.09533932021584925,1.4045119652997429
2250.25025025,0.20389571903040316,1.2340789122321896
3500.5005005000003,0.29641511556658257,1.0811002438016695
4750.75075075,0.37121242610609434,0.9487463271075349
6001.0010010000005,0.4299737985009485,0.83635798843715
7251.251251250001,0.47532114980345913,0.7420696060709324
8501.5015015,0.5104046557632614,0.6630437200304754
9751.751751750002,0.5376367821998946,0.5966998819903269
11002.002002000001,0.5588901365356869,0.5405226140701813
12252.25225225,0.5757901432567405,0.4927107869289779
13502.502502500001,0.5891934141703414,0.45186698661266195
14752.752752750002,0.6000845302116226,0.41656512803443685
16003.003003000002,0.6090297939806528,0.38602373932708106
17253.25325325,0.616417563446047,0.3592422493405517
18503.503503500004,0.6225329330584991,0.33566803933976824
19753.753753750003,0.6277191253953569,0.31470510321240897
21004.004004000002,0.6320820268367278,0.2959750254105184
22254.25425425,0.6357754035737808,0.2791488969296261
23504.5045045,0.639042093302279,0.26401045090146874
24754.754754750003,0.6418425233424733,0.2501333797566656
26005.005005000003,0.6443111445690612,0.23734021811144118
27255.255255250002,0.6464296620612788,0.22553194916476382
28505.505505500005,0.6484506140365913,0.21397664160238344
29755.755755750004,0.6491756578030874,0.20159615198642428
31006.006006000003,0.6462487268316583,0.1900918480935085
32256.256256250002,0.642127844699969,0.19759532518298306
33506.5065065,0.6521579612950702,0.18973486991162808
34756.75675675,0.6525582524331615,0.1779980820746382
36007.00700700001,0.6548896047552917,0.1709932827545005
37257.25725725001,0.656450897895889,0.1650810733057634
38507.507507500006,0.6573681076970969,0.15837329098538766
39757.757757750005,0.6575740861928115,0.15251347478473123
41008.008008000004,0.6583944214905328,0.14789290509042147
42258.25825825,0.6592243639424644,0.14258887289585803
43508.5085085,0.6597717381586046,0.13765218273536517
44758.75875875,0.6597368692950211,0.1334632094308795
46009.009009,0.6605409665931862,0.12940627757053316
47259.25925925001,0.6611121852261026,0.1255890584451688
48509.50950950001,0.6614813651906555,0.12175503156680437
49759.759759750006,0.6618605594388046,0.11816064590139984
51010.010010000005,0.66219142413477,0.11473100049819643
52260.260260250005,0.6625118300730839,0.11130754620440829
53510.510510500004,0.66280904594638,0.10816182795200459
54760.76076075,0.6630776026506251,0.10521594456994046
56011.01101100001,0.663326577022581,0.10230400777183991
57261.26126125001,0.6635898183325328,0.09954235903968729
58511.51151150001,0.663815376042408,0.09686174970885639
59761.76176175001,0.664059936169072,0.09431038964180949
61012.01201200001,0.6642272269079705,0.09178617113568066
62262.262262250006,0.6644434800841323,0.08941933552261362
63512.512512500005,0.6646083914397588,0.08713772220447819
64762.762762750004,0.6647843631551481,0.08488688787399222
66013.013013,0.6649941756354324,0.08279198930100756
67263.26326325,0.6651049475551811,0.08063171553578655
68513.5135135,0.6652575282225489,0.07855605034437667
69763.76376375,0.6654191800380568,0.07666572921303974
71014.01401400001,0.6655253763469751,0.07472740608568545
72264.26426425001,0.6656350621498349,0.0729221796316779
73514.51451450001,0.6657029402111801,0.07113107703106544
74764.76476475001,0.6658399664854362,0.06941724443546249
76015.01501500001,0.6659631717290336,0.06770331085214196
77265.26526525001,0.6660450793271759,0.06608691078992004
78515.51551550001,0.6660929465455637,0.06450271936235992
79765.76576575001,0.6662393874453014,0.06296493003496484
81016.01601600001,0.6663315672223497,0.061391407679632984
82266.26626625001,0.666369059954341,0.05995807081821113
83516.5165165,0.6664217061224005,0.05854709966139946
84766.76676675,0.6665515474970521,0.05711363603427058
86017.017017,0.6666041439614687,0.05573165415789309
87267.26726725,0.666659268525884,0.05435623019892582
88517.5175175,0.6668127921331876,0.05303279231354567
89767.76776775,0.6668144405955426,0.05175283103553818
91018.018018,0.6668390793942789,0.050548410164638895
92268.26826825002,0.6670075332781087,0.04929641778335677
93518.51851850002,0.667011356828172,0.04811799019473162
94768.76876875001,0.667029685390415,0.046915536136239076
96019.01901900001,0.6671178114402757,0.04580905543803119
97269.26926925001,0.6671771009458763,0.04459761844790958
98519.51951950001,0.6671972483050523,0.04350229528268986
99769.76976975001,0.6672225446552753,0.042439473129164657
101020.02002000001,0.6673817790255883,0.041319863461312015
102270.27027025001,0.6673670057711817,0.040264759919065994
103520.52052050001,0.6673488843909536,0.03925320652084814
104770.77077075001,0.6674427232518104,0.038260459131888844
106021.02102100001,0.6674139980856909,0.037275119709687415
107271.27127125,0.667455103605953,0.03621764488999035
108521.5215215,0.6675488389747306,0.035242668886439434
109771.77177175,0.6675276599272515,0.03434526896314736
111022.02202200002,0.6676150774718768,0.03338702768802055
112272.27227225002,0.6676081966926907,0.03254539395635992
113522.52252250002,0.6675495110498915,0.031564280048010616
114772.77277275002,0.6676824866167009,0.030688778533304
116023.02302300002,0.6676810921487178,0.02994362285477359
117273.27327325002,0.6676532442574508,0.028884940844239985
118523.52352350001,0.667738394815239,0.028099453594350593
119773.77377375001,0.6678191925406239,0.027280478630596305
121024.02402400001,0.6678370046265119,0.026477276956213075
122274.27427425001,0.6678420927258686,0.025720594179777494
123524.52452450001,0.6678249732331225,0.024820499538108044
124774.77477475001,0.6677843458386773,0.02415224208188026
126025.02502500001,0.6679111358601478,0.0231992897856726
127275.27527525001,0.6678697176223475,0.02243428987027757
128525.52552550001,0.667855398311082,0.021799676913284854
129775.77577575001,0.6678773305130382,0.02095676497002431
131026.026026,0.6679061422161308,0.020184983077783828
132276.27627625002,0.6679298326400126,0.019440771787661418
133526.5265265,0.6679724558046379,0.01874106915370308
134776.77677675002,0.6679538153989957,0.018001718074967383
136027.027027,0.6679232730288549,0.017308453178939042
137277.27727725002,0.6679462102154621,0.016689319925958335
138527.5275275,0.6679703840048948,0.015927129639760573
139777.77777775002,0.6679577750414285,0.015217582362779768
141028.02802800003,0.6679567418962107,0.014522026356758411
142278.27827825,0.6680001564474435,0.013885117203150197
143528.52852850003,0.6680150761502911,0.013177020047098127
144778.77877875,0.6679837030911311,0.012481962273655898
146029.02902900003,0.6679905380351113,0.011883147764374878
147279.27927925,0.667996598867138,0.011215334907543709
148529.52952950003,0.668052597740371,0.010592766777933825
149779.77977975,0.6680382337715596,0.009986281892182937
151030.03003000002,0.6680806318984167,0.009433541883003571
152280.28028025,0.6680882090065354,0.008674441289266659
153530.53053050002,0.6679777026202174,0.008132869950073776
154780.78078075,0.6680084703712608,0.007465164803444873
156031.03103100002,0.6680354740444111,0.006879030806274417
157281.28128125,0.6680551997379981,0.006317524742225597
158531.53153150002,0.6680491049437083,0.005733764499826536
159781.78178175,0.6681373307236999,0.005035978667366201
161032.03203200002,0.6680441321717677,0.004412040195949865
162282.28228225003,0.6680844303573681,0.0039576223123419605
163532.53253250002,0.6680570619469727,0.0033922412105000096
164782.78278275003,0.6680230313169687,0.0028671685433914167
166033.033033,0.668077620590791,0.0022177267673090468
167283.28328325003,0.6680018069061144,0.0016242225393032902
168533.5335335,0.668149775638567,0.0011270722478914051
169783.78378375003,0.6680497672386138,0.0005958694019374436
171034.034034,0.6681317334851518,3566564699784581e-20
172284.28428425002,0.668125392808373,-0.0005156747177434557
173534.5345345,0.6680548604669472,-0.0010852930727541952
174784.78478475002,0.6681032400729672,-0.0016238184622596277
176035.035035,0.6680142615765744,-0.0020830560531207853
177285.28528525002,0.6680086639900744,-0.002722482223117038
178535.5355355,0.6680260606960355,-0.0031766766693424897
179785.78578575002,0.668032835225212,-0.003672733323087998
181036.036036,0.6680325691339309,-0.004298820158974562
182286.28628625002,0.6680115995073774,-0.004814733307189094
183536.53653650003,0.6680813713917978,-0.005355514605538046
184786.78678675002,0.6680980179518068,-0.005835893181078948
186037.03703700003,0.6681168565710508,-0.006334839824897146
187287.28728725002,0.6680616414281855,-0.0067429184196680135
188537.53753750003,0.6681013100551143,-0.007294814395091122
189787.78778775,0.6680735496097973,-0.007779510927732922
191038.03803800003,0.6679912728667438,-0.008307510389946236
192288.28828825,0.6680548175158437,-0.008795222591568688
193538.53853850003,0.6680230709797073,-0.009293106107726917
194788.78878875,0.6680596824611532,-0.00966855571399483
196039.03903900002,0.6679642150531728,-0.010193330811105338
197289.28928925,0.6680299836162317,-0.010670288327020803
198539.53953950002,0.6680089801692966,-0.01115242343679259
199789.78978975,0.6679947911390753,-0.011682927003273606
201040.04004000002,0.668010781581653,-0.011977918050792923
202290.29029025004,0.6679616927327205,-0.012597262951439531
203540.54054050002,0.6680557630052969,-0.01311212870653872
204790.79079075003,0.6680305892019176,-0.013626419720770793
206041.04104100002,0.6679596558766538,-0.013967318186504036
207291.29129125003,0.6679526957064004,-0.014422311780823623
208541.54154150002,0.6679021387450775,-0.014920517618593615
209791.79179175003,0.6679532924091722,-0.015356029172970893
211042.04204200002,0.6679823508282129,-0.01571423716735403
212292.29229225003,0.667938023448821,-0.016192516378648176
213542.5425425,0.6679801595057813,-0.016593566548141956
214792.79279275003,0.667895157746797,-0.01705013336209074
216043.043043,0.6679314362706408,-0.017620317232781263
217293.29329325003,0.6679680533663885,-0.017997228064844713
218543.5435435,0.6679422362574978,-0.018441928776773805
219793.79379375002,0.6679086837330163,-0.01892841617596585
221044.04404400004,0.6678891812939134,-0.01932914876718153
222294.29429425002,0.6678668264649057,-0.019769130032891408
223544.54454450004,0.6678918023145091,-0.02015991327417514
224794.79479475002,0.667925053979835,-0.020524863396988727
226045.04504500004,0.6679546980310922,-0.021065055983650945
227295.29529525002,0.6678551276524931,-0.021405040072453724
228545.54554550003,0.6678322861594801,-0.021850862998803258
229795.79579575002,0.6678157008843193,-0.02220219586277806
231046.04604600003,0.6678856988564112,-0.022734028837020817
232296.29629625002,0.6678163181268364,-0.023149679457230322
233546.54654650003,0.6678260486596004,-0.0235735236346964
234796.79679675002,0.6677545900175278,-0.024046191182466065
236047.04704700003,0.6677891257332728,-0.024457612856982558
237297.29729725,0.6678217376316793,-0.024781328630249334
238547.54754750003,0.667840101640673,-0.02516686856665872
239797.79779775,0.667743148310473,-0.025686589018026364
241048.04804800003,0.6677786137944004,-0.026074247304182122
242298.29829825004,0.6678203842219759,-0.026366312037609467
243548.54854850002,0.6677634131610527,-0.02678965111382295
244798.79879875004,0.6677813706298905,-0.027205459557524465
246049.04904900002,0.6677398344332439,-0.027659828165845016
247299.29929925004,0.6676923219785293,-0.02802135237157243
248549.54954950002,0.6677413953463484,-0.02822658745415499
249799.79979975004,0.6677767795711964,-0.028756959940893945
251050.05005000002,0.667768670511613,-0.029331920302197306
252300.30030025003,0.6677273221516359,-0.029488643629051594
253550.55055050002,0.6676428142321068,-0.029925856125903663
254800.80080075003,0.6678202129968572,-0.030232479912145865
256051.05105100002,0.6678159777676979,-0.030703781636277818
257301.30130125003,0.6676058717066657,-0.031133308927103504
258551.55155150002,0.6677454023527335,-0.0315226991732892
259801.80180175003,0.667662517688965,-0.031886962961606
261052.052052,0.6677483611509301,-0.03232021565614928
262302.30230225006,0.6676639208710743,-0.032511269702067275
263552.55255250004,0.6676880852658558,-0.03307607767946133
264802.80280275,0.6675825632884034,-0.03348468053919997
266053.053053,0.6675850570469005,-0.03373734524649651
267303.30330325005,0.667614588255251,-0.03399718546503478
268553.55355350004,0.6675883375447444,-0.03457946827109003
269803.80380375,0.6675914842312644,-0.03500233122968662
271054.054054,0.6675401990143898,-0.035328542158813286
272304.30430425005,0.6675927587942615,-0.03562406834789558
273554.55455450004,0.6675443623085394,-0.036080691659635775
274804.80480475,0.6676022769965824,-0.03653912867564675
276055.055055,0.6676010488782985,-0.036747405641269944
277305.30530525005,0.6674878734651123,-0.037153822510852516
278555.55555550003,0.6675210306069511,-0.037408351327703156
279805.80580575,0.6674339452580987,-0.03800883608386471
281056.05605600006,0.6674894008531358,-0.03837821203144508
282306.30630625004,0.6675554298008483,-0.0385983856221913
283556.5565565,0.6674970551419575,-0.039012966830647956
284806.80680675,0.6674189223186239,-0.03927620697221121
286057.05705700006,0.6674293969946404,-0.03979213932623827
287307.30730725004,0.6673970173933993,-0.04012003583815693
288557.5575575,0.6673746096991569,-0.04048902544052672
289807.80780775,0.6673570235497408,-0.04084147149888586
291058.05805800005,0.6673511424644117,-0.041133325538085755
292308.30830825004,0.6673280258232986,-0.0413850052988386
293558.5585585,0.6672636277673258,-0.04202632379214245
294808.80880875,0.6672941559132953,-0.042293284751745215
296059.05905900005,0.6671711840898914,-0.042629319262377945
297309.30930925003,0.6672627564938206,-0.04292484867578149
298559.5595595,0.667243522327398,-0.043370550477677204
299809.80980975,0.6671911595336737,-0.043694602575541766
301060.06006000005,0.6672259506609459,-0.04404685863474054
302310.31031025003,0.667124955272037,-0.04445085582225964
303560.5605605,0.6671768596468798,-0.04467370342933487
304810.81081075006,0.6670773714435949,-0.04501645966560382
306061.06106100004,0.667134531654849,-0.045410933261601234
307311.31131125,0.6671007862252312,-0.0459376824865264
308561.5615615,0.6670947885966154,-0.04607560279736179
309811.81181175006,0.6670676204938584,-0.04643629648833916
311062.06206200004,0.6670808758707173,-0.04690156556551288
312312.31231225,0.6671500160893544,-0.047201440894481514
313562.5625625,0.6670206689646044,-0.04754193227405242
314812.81281275005,0.6670661693100194,-0.04791356258174617
316063.06306300004,0.6670632022767298,-0.0482755909729519
317313.31331325,0.6670637285309053,-0.048499343454529956
318563.5635635,0.6670090711357408,-0.04883316708120096
319813.81381375005,0.6669620123788762,-0.04927874263104003
321064.06406400003,0.6670004401304424,-0.04972328066065502
322314.31431425,0.6669546520676811,-0.04992353043869287
323564.56456450006,0.6669873353094168,-0.050253983331748915
324814.81481475005,0.6669853270891115,-0.050634041151104134
326065.06506500003,0.6669592307453309,-0.05101072652764347
327315.31531525,0.6669138885248594,-0.051268627601083375
328565.56556550006,0.6669025708009855,-0.05165512968811657
329815.81581575004,0.6668758180605387,-0.05200493497151312
331066.066066,0.6669113049405072,-0.05225067781766439
332316.31631625,0.6668754744639667,-0.052678304082953355
333566.56656650006,0.6668975722638553,-0.05301924761258174
334816.81681675004,0.6668473687884979,-0.05336478323437183
336067.067067,0.6669213536176756,-0.05374242988084182
337317.31731725,0.6668207685923012,-0.05402535343363682
338567.56756750005,0.6668576182918431,-0.054307130810735134
339817.81781775004,0.6667768137138406,-0.05456615093152102
341068.068068,0.6667876625568335,-0.055092265395905206
342318.31831825007,0.6667947217559195,-0.05540804154004282
343568.56856850005,0.6667191285371742,-0.05572682510831297
344818.81881875003,0.6668184826562943,-0.055926472163597175
346069.069069,0.6666674924235925,-0.056291757220679285
347319.31931925006,0.6667280483943042,-0.05678350180377841
348569.56956950005,0.6666764030594621,-0.056960504645282364
349819.81981975003,0.6666985936410407,-0.05733520449477299
351070.07007,0.6666952106600798,-0.057644740124983766
352320.32032025006,0.6666818470172994,-0.058036346534752176
353570.57057050004,0.6667073468016025,-0.058289594145366976
354820.82082075,0.6666695512420335,-0.058632960038059075
356071.071071,0.6666701402844855,-0.059045041244923706
357321.32132125006,0.666633165056052,-0.05925373703685843
358571.57157150004,0.6665699641793038,-0.05968029282382385
359821.82182175,0.6665711081995511,-0.05986267296942626
361072.072072,0.6666360614283765,-0.0602782855336041
362322.32232225005,0.6666094667017856,-0.06058353367209929
363572.57257250004,0.6666414345028782,-0.06104150404937655
364822.82282275,0.6665299401325268,-0.061212605998652955
366073.07307300007,0.6665648810477501,-0.06165573447261329
367323.32332325005,0.6665718459967271,-0.06193438351719702
368573.57357350003,0.6665561700354283,-0.062210564388362
369823.82382375,0.6665389754702868,-0.06263023285075738
371074.07407400006,0.6665618104063321,-0.0629912441014251
372324.32432425005,0.6665083144152363,-0.06317211494982038
373574.57457450003,0.6664544005040562,-0.06341052988048523
374824.82482475,0.6665475786972613,-0.0636906611967253
376075.07507500006,0.6665574934530242,-0.06421297736127222
377325.32532525004,0.6665165063098206,-0.06444620898729363
378575.5755755,0.6664210529827882,-0.06474950056195546
379825.82582575,0.6665029167768471,-0.06512317834785784
381076.07607600006,0.6665035207242194,-0.06541273251085186
382326.32632625004,0.6664415670594914,-0.06575666620487727
383576.5765765,0.6664377784023251,-0.06604160913049491
384826.82682675007,0.6664308700729175,-0.06632499462097928
386077.07707700005,0.6663125158550414,-0.06667927548673426
387327.32732725004,0.666383660346166,-0.06717452078370277
388577.5775775,0.6664492270673723,-0.06748235424141796
389827.82782775006,0.6664594123113945,-0.06768731023887183
391078.07807800005,0.6664170579270217,-0.06805733491835382
392328.32832825003,0.666356561315604,-0.06826054188261794
393578.5785785,0.6663007701587753,-0.06858688084194273
394828.82882875006,0.6663714714850706,-0.06877022854258097
396079.07907900005,0.6662910058673619,-0.06920044333081632
397329.32932925003,0.6663578540182145,-0.06953169187636873
398579.5795795,0.6663382213926634,-0.0697424401177334
399829.82982975006,0.6662893755198506,-0.0701127302218266
401080.08008000004,0.6662532670674846,-0.07046421822742048
402330.33033025,0.6662196375475985,-0.07075004513734602
403580.5805805001,0.6662487334824765,-0.07114147275768025
404830.83083075006,0.6661570666161631,-0.07141454606470152
406081.08108100004,0.6662250470863369,-0.07172953183526565
407331.33133125,0.6662282199999293,-0.07207685782086386
408581.58158150007,0.6660913411073652,-0.07239409731292543
409831.83183175005,0.6661645074191532,-0.07271304297707903
411082.08208200004,0.6661735885851847,-0.07288804674690666
412332.33233225,0.6661732252077468,-0.0732803582063374
413582.58258250006,0.6661805746949163,-0.07354020166822102
414832.83283275005,0.666104464960303,-0.07391344310313537
416083.08308300003,0.6661447302068052,-0.07421857875847641
417333.33333325,0.6661033096081396,-0.07451810098918595
418583.58358350006,0.6660775384201064,-0.07477340138450843
419833.83383375005,0.6661151074102568,-0.07515587247184213
421084.08408400003,0.6660327143166771,-0.07552052679747583
422334.3343342501,0.6659603668120841,-0.07567339776361741
423584.58458450006,0.6660745850507085,-0.0760741906758555
424834.83483475004,0.6660077324433094,-0.07635301859015854
426085.085085,0.6660518401339033,-0.07674916637683483
427335.33533525007,0.6659596539152997,-0.07698642512548134
428585.58558550006,0.6659560518418196,-0.07723811542453221
429835.83583575004,0.665927015437607,-0.0776044185813853
431086.086086,0.6659288897135734,-0.07781915195205512
432336.33633625007,0.6659303776934422,-0.07814028314053646
433586.58658650005,0.665883981292326,-0.07855415257998768
